# Matter power spectrum P(k) at redshift z=0
# for k=1.04213e-05 to 504.967 h/Mpc,
# number of wavenumbers equal to 739
#    1:k (h/Mpc)              2:P (Mpc/h)^3        
       1.042132540099e-05       4.831336735426e+01 
       1.066406925311e-05       4.940008395796e+01 
       1.091246733590e-05       5.051125839857e+01 
       1.116665135332e-05       5.164741411961e+01 
       1.142675607710e-05       5.280913613244e+01 
       1.169291941819e-05       5.399698110734e+01 
       1.196528249994e-05       5.521154653933e+01 
       1.224398973285e-05       5.645343390604e+01 
       1.252918889118e-05       5.772322208488e+01 
       1.282103119131e-05       5.902162641936e+01 
       1.311967137188e-05       6.034921206795e+01 
       1.342526777587e-05       6.170665682697e+01 
       1.373798243454e-05       6.309463589808e+01 
       1.405798115334e-05       6.451382014295e+01 
       1.438543359983e-05       6.596494389356e+01 
       1.472051339363e-05       6.744870719206e+01 
       1.506339819847e-05       6.896584250175e+01 
       1.541426981643e-05       7.051709071995e+01 
       1.577331428428e-05       7.210324262401e+01 
       1.614072197215e-05       7.372507333607e+01 
       1.651668768445e-05       7.538336744427e+01 
       1.690141076319e-05       7.707895837251e+01 
       1.729509519363e-05       7.881269768005e+01 
       1.769794971247e-05       8.058544425193e+01 
       1.811018791850e-05       8.239804510803e+01 
       1.853202838589e-05       8.425142103212e+01 
       1.896369478003e-05       8.614649238412e+01 
       1.940541597616e-05       8.808417884363e+01 
       1.985742618070e-05       9.006544547744e+01 
       2.031996505544e-05       9.209128528029e+01 
       2.079327784462e-05       9.416267118406e+01 
       2.127761550495e-05       9.628065654544e+01 
       2.177323483866e-05       9.844628781800e+01 
       2.228039862968e-05       1.006606196539e+02 
       2.279937578297e-05       1.029247427544e+02 
       2.333044146709e-05       1.052398073149e+02 
       2.387387726009e-05       1.076069419926e+02 
       2.442997129882e-05       1.100273037311e+02 
       2.499901843170e-05       1.125021076933e+02 
       2.558132037506e-05       1.150325800182e+02 
       2.617718587309e-05       1.176199539238e+02 
       2.678693086156e-05       1.202655243684e+02 
       2.741087863535e-05       1.229706039865e+02 
       2.804936001981e-05       1.257365118022e+02 
       2.870271354623e-05       1.285646274258e+02 
       2.937128563130e-05       1.314563506874e+02 
       3.005543076078e-05       1.344131094292e+02 
       3.075551167749e-05       1.374363644843e+02 
       3.147189957358e-05       1.405276170973e+02 
       3.220497428741e-05       1.436883873019e+02 
       3.295512450489e-05       1.469202422352e+02 
       3.372274796559e-05       1.502247760723e+02 
       3.450825167364e-05       1.536036272238e+02 
       3.531205211350e-05       1.570584731507e+02 
       3.613457547080e-05       1.605910061350e+02 
       3.697625785831e-05       1.642029811884e+02 
       3.783754554717e-05       1.678961864516e+02 
       3.871889520352e-05       1.716724453694e+02 
       3.962077413062e-05       1.755336242082e+02 
       4.054366051660e-05       1.794816321301e+02 
       4.148804368805e-05       1.835184206664e+02 
       4.245442436942e-05       1.876459851349e+02 
       4.344331494854e-05       1.918663639285e+02 
       4.445523974828e-05       1.961816459446e+02 
       4.549073530458e-05       2.005939605215e+02 
       4.655035065087e-05       2.051054904315e+02 
       4.763464760925e-05       2.097184645864e+02 
       4.874420108831e-05       2.144351624317e+02 
       4.987959938799e-05       2.192579138449e+02 
       5.104144451150e-05       2.241891009906e+02 
       5.223035248451e-05       2.292311622305e+02 
       5.344695368175e-05       2.343865844121e+02 
       5.469189316129e-05       2.396579134388e+02 
       5.596583100652e-05       2.450477575664e+02 
       5.726944267614e-05       2.505587779735e+02 
       5.860341936231e-05       2.561936931170e+02 
       5.996846835715e-05       2.619552858370e+02 
       6.136531342768e-05       2.678464012972e+02 
       6.279469519966e-05       2.738699474565e+02 
       6.425737155021e-05       2.800288968763e+02 
       6.575411800971e-05       2.863262884084e+02 
       6.728572817294e-05       2.927652335861e+02 
       6.885301411988e-05       2.993489025407e+02 
       7.045680684628e-05       3.060805506904e+02 
       7.209795670428e-05       3.129634937208e+02 
       7.377733385325e-05       3.200011278737e+02 
       7.549582872119e-05       3.271969244129e+02 
       7.725435247682e-05       3.345544293903e+02 
       7.905383751272e-05       3.420772702096e+02 
       8.089523793966e-05       3.497691549456e+02 
       8.277953009254e-05       3.576338742325e+02 
       8.470771304799e-05       3.656753017679e+02 
       8.668080915414e-05       3.738974011882e+02 
       8.869986457266e-05       3.823042186299e+02 
       9.076594983345e-05       3.908998945310e+02 
       9.288016040228e-05       3.996886610812e+02 
       9.504361726156e-05       4.086748424676e+02 
       9.725746750477e-05       4.178628592089e+02 
       9.952288494460e-05       4.272572332225e+02 
       1.018410707354e-04       4.368625817116e+02 
       1.042132540099e-04       4.466836279346e+02 
       1.066406925311e-04       4.567251982207e+02 
       1.091246733590e-04       4.669922255902e+02 
       1.116665135332e-04       4.774897531106e+02 
       1.142675607710e-04       4.882229345013e+02 
       1.169291941819e-04       4.991970367750e+02 
       1.196528249994e-04       5.104174441797e+02 
       1.224398973285e-04       5.218896593481e+02 
       1.252918889118e-04       5.336193055964e+02 
       1.282103119131e-04       5.456121305769e+02 
       1.311967137188e-04       5.578740079357e+02 
       1.342526777587e-04       5.704109404008e+02 
       1.373798243454e-04       5.832290614930e+02 
       1.405798115334e-04       5.963346392862e+02 
       1.438543359983e-04       6.097340810367e+02 
       1.472051339363e-04       6.234339307569e+02 
       1.506339819847e-04       6.374408770343e+02 
       1.541426981643e-04       6.517617538935e+02 
       1.577331428428e-04       6.664035435783e+02 
       1.614072197215e-04       6.813733812816e+02 
       1.651668768445e-04       6.966785552161e+02 
       1.690141076319e-04       7.123265122181e+02 
       1.729509519363e-04       7.283248597717e+02 
       1.769794971247e-04       7.446813706287e+02 
       1.811018791850e-04       7.614039823846e+02 
       1.853202838589e-04       7.785008054264e+02 
       1.896369478003e-04       7.959801234176e+02 
       1.940541597616e-04       8.138503971729e+02 
       1.985742618070e-04       8.321202679937e+02 
       2.031996505544e-04       8.507985613981e+02 
       2.079327784462e-04       8.698942905275e+02 
       2.127761550495e-04       8.894166602782e+02 
       2.177323483866e-04       9.093750681757e+02 
       2.228039862968e-04       9.297791114276e+02 
       2.279937578297e-04       9.506385885249e+02 
       2.333044146709e-04       9.719635037541e+02 
       2.387387726009e-04       9.937640699092e+02 
       2.442997129882e-04       1.016050712923e+03 
       2.499901843170e-04       1.038834074271e+03 
       2.558132037506e-04       1.062125016844e+03 
       2.617718587309e-04       1.085934626614e+03 
       2.678693086156e-04       1.110274217308e+03 
       2.741087863535e-04       1.135155334794e+03 
       2.804936001981e-04       1.160589758589e+03 
       2.870271354623e-04       1.186589508770e+03 
       2.937128563130e-04       1.213166847552e+03 
       3.005543076078e-04       1.240334283916e+03 
       3.075551167749e-04       1.268104576876e+03 
       3.147189957358e-04       1.296490740463e+03 
       3.220497428741e-04       1.325506045621e+03 
       3.295512450489e-04       1.355164025603e+03 
       3.372274796559e-04       1.385478479175e+03 
       3.450825167364e-04       1.416463474064e+03 
       3.531205211350e-04       1.448133350020e+03 
       3.613457547080e-04       1.480502725569e+03 
       3.697625785831e-04       1.513586496845e+03 
       3.783754554717e-04       1.547399845150e+03 
       3.871889520352e-04       1.581958238633e+03 
       3.962077413062e-04       1.617277435280e+03 
       4.054366051660e-04       1.653373489736e+03 
       4.148804368805e-04       1.690262752456e+03 
       4.245442436942e-04       1.727961872917e+03 
       4.344331494854e-04       1.766487808174e+03 
       4.445523974828e-04       1.805857820845e+03 
       4.549073530458e-04       1.846089481972e+03 
       4.655035065087e-04       1.887200679099e+03 
       4.763464760925e-04       1.929209618382e+03 
       4.874420108831e-04       1.972134813888e+03 
       4.987959938799e-04       2.015995112788e+03 
       5.104144451150e-04       2.060809680950e+03 
       5.223035248451e-04       2.106598011450e+03 
       5.344695368175e-04       2.153379927723e+03 
       5.469189316129e-04       2.201175582628e+03 
       5.596583100652e-04       2.250005459312e+03 
       5.726944267614e-04       2.299890380639e+03 
       5.860341936231e-04       2.350851503937e+03 
       5.996846835715e-04       2.402910320455e+03 
       6.136531342768e-04       2.456088661695e+03 
       6.279469519966e-04       2.510408701091e+03 
       6.425737155021e-04       2.565892946533e+03 
       6.575411800971e-04       2.622564246454e+03 
       6.728572817294e-04       2.680445797235e+03 
       6.885301411988e-04       2.739561123464e+03 
       7.045680684628e-04       2.799934083372e+03 
       7.209795670428e-04       2.861588882031e+03 
       7.377733385325e-04       2.924550059054e+03 
       7.549582872119e-04       2.988842455106e+03 
       7.725435247682e-04       3.054491286946e+03 
       7.905383751272e-04       3.121522057334e+03 
       8.089523793966e-04       3.189960595543e+03 
       8.277953009254e-04       3.259833046401e+03 
       8.470771304799e-04       3.331165847537e+03 
       8.668080915414e-04       3.403985710065e+03 
       8.869986457266e-04       3.478319776795e+03 
       9.076594983345e-04       3.554195242714e+03 
       9.288016040228e-04       3.631639717405e+03 
       9.504361726156e-04       3.710681042607e+03 
       9.725746750477e-04       3.791347299758e+03 
       9.952288494460e-04       3.873666775633e+03 
       1.018410707354e-03       3.957668009205e+03 
       1.042132540099e-03       4.043379679124e+03 
       1.066406925311e-03       4.130830691950e+03 
       1.091246733590e-03       4.220050103885e+03 
       1.116665135332e-03       4.311067076119e+03 
       1.142675607710e-03       4.403910996990e+03 
       1.169291941819e-03       4.498611202988e+03 
       1.196528249994e-03       4.595197203040e+03 
       1.224398973285e-03       4.693698531493e+03 
       1.252918889118e-03       4.794144762450e+03 
       1.282103119131e-03       4.896565479470e+03 
       1.311967137188e-03       5.000990194255e+03 
       1.342526777587e-03       5.107448373130e+03 
       1.373798243454e-03       5.215969427524e+03 
       1.405798115334e-03       5.326582641002e+03 
       1.438543359983e-03       5.439317152700e+03 
       1.472051339363e-03       5.554201853799e+03 
       1.506339819847e-03       5.671265467996e+03 
       1.541426981643e-03       5.790536440557e+03 
       1.577331428428e-03       5.912042854745e+03 
       1.614072197215e-03       6.035812503569e+03 
       1.651668768445e-03       6.161872688312e+03 
       1.690141076319e-03       6.290250339319e+03 
       1.729509519363e-03       6.420971394879e+03 
       1.769794971247e-03       6.554062804563e+03 
       1.811018791850e-03       6.689548597516e+03 
       1.853202838589e-03       6.827453623261e+03 
       1.896369478003e-03       6.967801451546e+03 
       1.940541597616e-03       7.110615292956e+03 
       1.985742618070e-03       7.255916959935e+03 
       2.031996505544e-03       7.403727593142e+03 
       2.079327784462e-03       7.554067212890e+03 
       2.127761550495e-03       7.706954764511e+03 
       2.177323483866e-03       7.862407928507e+03 
       2.228039862968e-03       8.020444079450e+03 
       2.279937578297e-03       8.181077671186e+03 
       2.333044146709e-03       8.344322874238e+03 
       2.387387726009e-03       8.510192123289e+03 
       2.442997129882e-03       8.678696343110e+03 
       2.499901843170e-03       8.849844330194e+03 
       2.558132037506e-03       9.023643997960e+03 
       2.617718587309e-03       9.200100319979e+03 
       2.678693086156e-03       9.379217033547e+03 
       2.741087863535e-03       9.560995803138e+03 
       2.804936001981e-03       9.745435651026e+03 
       2.870271354623e-03       9.932533571824e+03 
       2.937128563130e-03       1.012228421326e+04 
       3.005543076078e-03       1.031467941161e+04 
       3.075551167749e-03       1.050970859600e+04 
       3.147189957358e-03       1.070735853202e+04 
       3.220497428741e-03       1.090761236842e+04 
       3.295512450489e-03       1.111087081315e+04 
       3.372274796559e-03       1.131674937677e+04 
       3.450825167364e-03       1.152515208583e+04 
       3.531205211350e-03       1.173604698408e+04 
       3.613457547080e-03       1.194940063992e+04 
       3.697625785831e-03       1.216517427359e+04 
       3.783754554717e-03       1.238332645841e+04 
       3.871889520352e-03       1.260381255654e+04 
       3.962077413062e-03       1.282658378529e+04 
       4.054366051660e-03       1.305158585760e+04 
       4.148804368805e-03       1.327876317552e+04 
       4.245442436942e-03       1.350805260324e+04 
       4.344331494854e-03       1.373938817921e+04 
       4.445523974828e-03       1.397269759392e+04 
       4.549073530458e-03       1.420790593796e+04 
       4.655035065087e-03       1.444492948370e+04 
       4.763464760925e-03       1.468367785557e+04 
       4.874420108831e-03       1.492405257388e+04 
       4.987959938799e-03       1.516597733213e+04 
       5.104144451150e-03       1.540933571723e+04 
       5.223035248451e-03       1.565401244025e+04 
       5.344695368175e-03       1.589989592957e+04 
       5.469189316129e-03       1.614685599272e+04 
       5.596583100652e-03       1.639475766208e+04 
       5.726944267614e-03       1.664346665352e+04 
       5.860341936231e-03       1.689283976111e+04 
       5.996846835715e-03       1.714271805891e+04 
       6.136531342768e-03       1.739294437288e+04 
       6.279469519966e-03       1.764335015749e+04 
       6.425737155021e-03       1.789375972731e+04 
       6.575411800971e-03       1.814398811733e+04 
       6.728572817294e-03       1.839384282154e+04 
       6.885301411988e-03       1.864312544387e+04 
       7.045680684628e-03       1.889162386612e+04 
       7.209795670428e-03       1.913912039418e+04 
       7.377733385325e-03       1.938538647617e+04 
       7.549582872119e-03       1.963018662373e+04 
       7.725435247682e-03       1.987327622711e+04 
       7.905383751272e-03       2.011439459730e+04 
       8.089523793966e-03       2.035328272930e+04 
       8.277953009254e-03       2.058966434277e+04 
       8.470771304799e-03       2.082325346376e+04 
       8.668080915414e-03       2.105375839564e+04 
       8.869986457266e-03       2.128087967637e+04 
       9.076594983345e-03       2.150429858197e+04 
       9.288016040228e-03       2.172368946194e+04 
       9.504361726156e-03       2.193872211929e+04 
       9.725746750477e-03       2.214905125602e+04 
       9.952288494460e-03       2.235432035431e+04 
       1.018410707354e-02       2.255417056709e+04 
       1.042132540099e-02       2.274822821070e+04 
       1.066406925311e-02       2.293610985662e+04 
       1.091246733590e-02       2.311742631207e+04 
       1.116665135332e-02       2.329177140251e+04 
       1.142675607710e-02       2.345874722347e+04 
       1.169291941819e-02       2.361792773137e+04 
       1.196528249994e-02       2.376888567295e+04 
       1.224398973285e-02       2.391118547765e+04 
       1.252918889118e-02       2.404440830242e+04 
       1.282103119131e-02       2.416810635577e+04 
       1.311967137188e-02       2.428183826862e+04 
       1.342526777587e-02       2.438514074628e+04 
       1.373798243454e-02       2.447756057238e+04 
       1.405798115334e-02       2.455864489811e+04 
       1.438543359983e-02       2.462795704289e+04 
       1.472051339363e-02       2.468501626768e+04 
       1.506339819849e-02       2.472940630198e+04 
       1.541426981647e-02       2.476066394521e+04 
       1.577331428438e-02       2.477837465645e+04 
       1.614072197237e-02       2.478211096581e+04 
       1.651668768495e-02       2.477144718880e+04 
       1.690141076429e-02       2.474600707682e+04 
       1.729509519601e-02       2.470540786063e+04 
       1.769794971752e-02       2.464929928854e+04 
       1.811018792901e-02       2.457733454711e+04 
       1.853202840732e-02       2.448924560785e+04 
       1.896369482293e-02       2.438472216366e+04 
       1.940541606046e-02       2.426357131771e+04 
       1.985742634338e-02       2.412556190622e+04 
       2.031996536382e-02       2.397055444551e+04 
       2.079327841906e-02       2.379846929082e+04 
       2.127761655686e-02       2.360922491930e+04 
       2.177323673295e-02       2.340284692761e+04 
       2.228040198546e-02       2.317933246420e+04 
       2.279938163323e-02       2.293892933908e+04 
       2.333045150724e-02       2.268171544845e+04 
       2.387389422841e-02       2.240799122792e+04 
       2.442999954876e-02       2.211813387149e+04 
       2.499906477869e-02       2.181256627362e+04 
       2.558139532906e-02       2.149170834343e+04 
       2.617730540378e-02       2.115626091199e+04 
       2.678711888673e-02       2.080672832261e+04 
       2.741117047432e-02       2.044403124248e+04 
       2.804980711367e-02       2.006882337816e+04 
       2.870338981281e-02       1.968213723106e+04 
       2.937229589581e-02       1.928492420570e+04 
       3.005692177848e-02       1.887817535768e+04 
       3.075768634097e-02       1.846306962991e+04 
       3.147503496955e-02       1.804073631317e+04 
       3.220944433133e-02       1.761240386003e+04 
       3.296142793193e-02       1.717939844083e+04 
       3.373154248684e-02       1.674298102091e+04 
       3.452039511231e-02       1.630444197888e+04 
       3.532865131259e-02       1.586510518534e+04 
       3.615704370614e-02       1.542631640992e+04 
       3.700638139748e-02       1.498934087358e+04 
       3.787755986313e-02       1.455549493079e+04 
       3.877157118206e-02       1.412591427953e+04 
       3.968951440460e-02       1.370184418335e+04 
       4.063260581978e-02       1.328438105662e+04 
       4.160218885160e-02       1.287448567222e+04 
       4.259974328985e-02       1.247316600871e+04 
       4.362689354262e-02       1.208116712945e+04 
       4.468541558669e-02       1.169921544308e+04 
       4.577724228881e-02       1.132791756161e+04 
       4.690446677877e-02       1.096765303340e+04 
       4.806934357456e-02       1.061866428095e+04 
       4.927428719465e-02       1.028092082099e+04 
       5.052186804404e-02       9.954359815382e+03 
       5.181480543204e-02       9.638435287816e+03 
       5.315595767184e-02       9.332453016916e+03 
       5.454830932398e-02       9.035294880392e+03 
       5.599495577531e-02       8.745608212354e+03 
       5.749908548580e-02       8.461555682179e+03 
       5.906396037789e-02       8.180976518519e+03 
       6.069289497669e-02       7.901338620750e+03 
       6.238923501948e-02       7.619821955456e+03 
       6.415633632805e-02       7.333358410229e+03 
       6.599754476631e-02       7.038943292775e+03 
       6.791617808210e-02       6.733594570515e+03 
       6.991551035597e-02       6.414890648893e+03 
