# Matter power spectrum P(k) at redshift z=0
# for k=1.04277e-05 to 505.276 h/Mpc,
# number of wavenumbers equal to 739
#    1:k (h/Mpc)              2:P (Mpc/h)^3        
       1.042770114816e-05       4.834192101197e+01 
       1.067059351051e-05       4.942928519727e+01 
       1.091914356278e-05       5.054111269397e+01 
       1.117348308950e-05       5.167794397534e+01 
       1.143374694485e-05       5.284034654783e+01 
       1.170007312418e-05       5.402889135065e+01 
       1.197260283715e-05       5.524417637314e+01 
       1.225148058261e-05       5.648679157325e+01 
       1.253685422525e-05       5.775736520519e+01 
       1.282887507394e-05       5.905650882529e+01 
       1.312769796201e-05       6.038487486057e+01 
       1.343348132931e-05       6.174313246091e+01 
       1.374638730621e-05       6.313192455974e+01 
       1.406658179962e-05       6.455195417287e+01 
       1.439423458090e-05       6.600393241786e+01 
       1.472951937588e-05       6.748856203334e+01 
       1.507261395700e-05       6.900659029105e+01 
       1.542370023755e-05       7.055876875911e+01 
       1.578296436813e-05       7.214585369416e+01 
       1.615059683532e-05       7.376864347865e+01 
       1.652679256274e-05       7.542790618898e+01 
       1.691175101433e-05       7.712451883260e+01 
       1.730567630016e-05       7.885927175616e+01 
       1.770877728463e-05       8.063307750682e+01 
       1.812126769722e-05       8.244673892028e+01 
       1.854336624581e-05       8.430121062235e+01 
       1.897529673263e-05       8.619740000171e+01 
       1.941728817295e-05       8.813623019727e+01 
       1.986957491648e-05       9.011866262871e+01 
       2.033239677163e-05       9.214569802684e+01 
       2.080599913268e-05       9.421830865098e+01 
       2.129063310987e-05       9.633755331050e+01 
       2.178655566255e-05       9.850445678765e+01 
       2.229402973542e-05       1.007200951411e+02 
       2.281332439796e-05       1.029855629720e+02 
       2.334471498706e-05       1.053019770340e+02 
       2.388848325305e-05       1.076705190932e+02 
       2.444491750906e-05       1.100923171867e+02 
       2.501431278390e-05       1.125685750879e+02 
       2.559697097848e-05       1.151005360195e+02 
       2.619320102590e-05       1.176894468379e+02 
       2.680331905520e-05       1.203365802066e+02 
       2.742764855905e-05       1.230432437522e+02 
       2.806652056522e-05       1.258107877204e+02 
       2.872027381209e-05       1.286405753753e+02 
       2.938925492830e-05       1.315340051338e+02 
       3.007381861648e-05       1.344925074973e+02 
       3.077432784137e-05       1.375175402786e+02 
       3.149115402222e-05       1.406106143612e+02 
       3.222467722977e-05       1.437732527149e+02 
       3.297528638774e-05       1.470070097512e+02 
       3.374337947902e-05       1.503134922167e+02 
       3.452936375675e-05       1.536943374170e+02 
       3.533365596020e-05       1.571512144256e+02 
       3.615668253573e-05       1.606858283844e+02 
       3.699887986293e-05       1.642999355894e+02 
       3.786069448598e-05       1.679953234924e+02 
       3.874258335038e-05       1.717738002678e+02 
       3.964501404530e-05       1.756372526298e+02 
       4.056846505143e-05       1.795875853798e+02 
       4.151342599471e-05       1.836267500170e+02 
       4.248039790595e-05       1.877567438558e+02 
       4.346989348646e-05       1.919796088484e+02 
       4.448243737988e-05       1.962974259569e+02 
       4.551856645040e-05       2.007123370131e+02 
       4.657883006736e-05       2.052265200982e+02 
       4.766379039657e-05       2.098422071669e+02 
       4.877402269835e-05       2.145616772041e+02 
       4.991011563256e-05       2.193872634345e+02 
       5.107267157072e-05       2.243213473566e+02 
       5.226230691538e-05       2.293663689148e+02 
       5.347965242693e-05       2.345248146161e+02 
       5.472535355809e-05       2.397992445648e+02 
       5.600007079608e-05       2.451922482968e+02 
       5.730448001285e-05       2.507065007674e+02 
       5.863927282345e-05       2.563447193301e+02 
       6.000515695267e-05       2.621096919854e+02 
       6.140285661038e-05       2.680042560659e+02 
       6.283311287542e-05       2.740313300269e+02 
       6.429668408860e-05       2.801938838459e+02 
       6.579434625475e-05       2.864949605392e+02 
       6.732689345418e-05       2.929376713862e+02 
       6.889513826370e-05       2.995251890415e+02 
       7.049991218746e-05       3.062607700558e+02 
       7.214206609783e-05       3.131477319911e+02 
       7.382247068657e-05       3.201894724362e+02 
       7.554201692642e-05       3.273894654441e+02 
       7.730161654356e-05       3.347512579314e+02 
       7.910220250099e-05       3.422784804068e+02 
       8.094472949324e-05       3.499748419719e+02 
       8.283017445249e-05       3.578441341686e+02 
       8.475953706663e-05       3.658902368471e+02 
       8.673384030924e-05       3.741171094949e+02 
       8.875413098205e-05       3.825288047122e+02 
       9.082148026990e-05       3.911294636956e+02 
       9.293698430875e-05       3.999233196713e+02 
       9.510176476685e-05       4.089146998244e+02 
       9.731696943945e-05       4.181080277453e+02 
       9.958377285739e-05       4.275078252346e+02 
       1.019033769098e-04       4.371187129158e+02 
       1.042770114816e-04       4.469454167723e+02 
       1.067059351051e-04       4.569927637976e+02 
       1.091914356278e-04       4.672656906003e+02 
       1.117348308950e-04       4.777692414041e+02 
       1.143374694485e-04       4.885085724087e+02 
       1.170007312418e-04       4.994889538472e+02 
       1.197260283715e-04       5.107157709003e+02 
       1.225148058261e-04       5.221945283795e+02 
       1.253685422525e-04       5.339308529344e+02 
       1.282887507394e-04       5.459304934410e+02 
       1.312769796201e-04       5.581993260621e+02 
       1.343348132931e-04       5.707433553134e+02 
       1.374638730621e-04       5.835687173513e+02 
       1.406658179962e-04       5.966816833534e+02 
       1.439423458090e-04       6.100886606559e+02 
       1.472951937588e-04       6.237961963635e+02 
       1.507261395700e-04       6.378109812749e+02 
       1.542370023755e-04       6.521398516293e+02 
       1.578296436813e-04       6.667897908348e+02 
       1.615059683532e-04       6.817679361359e+02 
       1.652679256274e-04       6.970815777178e+02 
       1.691175101433e-04       7.127381645513e+02 
       1.730567630016e-04       7.287453055231e+02 
       1.770877728463e-04       7.451107731153e+02 
       1.812126769722e-04       7.618425089367e+02 
       1.854336624581e-04       7.789486237109e+02 
       1.897529673263e-04       7.964374010437e+02 
       1.941728817295e-04       8.143173046910e+02 
       1.986957491648e-04       8.325969754689e+02 
       2.033239677163e-04       8.512852397042e+02 
       2.080599913268e-04       8.703911110363e+02 
       2.129063310987e-04       8.899237942625e+02 
       2.178655566255e-04       9.098926868868e+02 
       2.229402973542e-04       9.303073854028e+02 
       2.281332439796e-04       9.511776881137e+02 
       2.334471498706e-04       9.725135977308e+02 
       2.388848325305e-04       9.943253262489e+02 
       2.444491750906e-04       1.016623296662e+03 
       2.501431278390e-04       1.039418149715e+03 
       2.559697097848e-04       1.062720744014e+03 
       2.619320102590e-04       1.086542163265e+03 
       2.680331905520e-04       1.110893716953e+03 
       2.742764855905e-04       1.135786946488e+03 
       2.806652056522e-04       1.161233626641e+03 
       2.872027381209e-04       1.187245771725e+03 
       2.938925492830e-04       1.213835637038e+03 
       3.007381861648e-04       1.241015724363e+03 
       3.077432784137e-04       1.268798784670e+03 
       3.149115402222e-04       1.297197822661e+03 
       3.222467722977e-04       1.326226098851e+03 
       3.297528638774e-04       1.355897135238e+03 
       3.374337947902e-04       1.386224718399e+03 
       3.452936375675e-04       1.417222900207e+03 
       3.533365596020e-04       1.448906010678e+03 
       3.615668253573e-04       1.481288645426e+03 
       3.699887986293e-04       1.514385685428e+03 
       3.786069448598e-04       1.548212290906e+03 
       3.874258335038e-04       1.582783908409e+03 
       3.964501404530e-04       1.618116272789e+03 
       4.056846505143e-04       1.654225410345e+03 
       4.151342599471e-04       1.691127644552e+03 
       4.248039790595e-04       1.728839590966e+03 
       4.346989348646e-04       1.767378183491e+03 
       4.448243737988e-04       1.806760637325e+03 
       4.551856645040e-04       1.847004488470e+03 
       4.657883006736e-04       1.888127580095e+03 
       4.766379039657e-04       1.930148070291e+03 
       4.877402269835e-04       1.973084428028e+03 
       4.991011563256e-04       2.016955442957e+03 
       5.107267157072e-04       2.061780224657e+03 
       5.226230691538e-04       2.107578197258e+03 
       5.347965242693e-04       2.154369118881e+03 
       5.472535355809e-04       2.202173071659e+03 
       5.600007079608e-04       2.251010459707e+03 
       5.730448001285e-04       2.300902013620e+03 
       5.863927282345e-04       2.351868800538e+03 
       6.000515695267e-04       2.403932213011e+03 
       6.140285661038e-04       2.457113978731e+03 
       6.283311287542e-04       2.511436152896e+03 
       6.429668408860e-04       2.566921109951e+03 
       6.579434625475e-04       2.623591584987e+03 
       6.732689345418e-04       2.681470612816e+03 
       6.889513826370e-04       2.740581565694e+03 
       7.049991218746e-04       2.800948138661e+03 
       7.214206609783e-04       2.862594365121e+03 
       7.382247068657e-04       2.925544568583e+03 
       7.554201692642e-04       2.989823419198e+03 
       7.730161654356e-04       3.055455894387e+03 
       7.910220250099e-04       3.122467243365e+03 
       8.094472949324e-04       3.190883062233e+03 
       8.283017445249e-04       3.260729211656e+03 
       8.475953706663e-04       3.332031834813e+03 
       8.673384030924e-04       3.404817368932e+03 
       8.875413098205e-04       3.479112502813e+03 
       9.082148026990e-04       3.554944176001e+03 
       9.293698430875e-04       3.632339578893e+03 
       9.510176476685e-04       3.711326127378e+03 
       9.731696943945e-04       3.791931423447e+03 
       9.958377285739e-04       3.874183323490e+03 
       1.019033769098e-03       3.958109823590e+03 
       1.042770114816e-03       4.043739004729e+03 
       1.067059351051e-03       4.131099320482e+03 
       1.091914356278e-03       4.220219060091e+03 
       1.117348308950e-03       4.311126768916e+03 
       1.143374694485e-03       4.403851027511e+03 
       1.170007312418e-03       4.498420462771e+03 
       1.197260283715e-03       4.594863727025e+03 
       1.225148058261e-03       4.693209458683e+03 
       1.253685422525e-03       4.793486249797e+03 
       1.282887507394e-03       4.895722681894e+03 
       1.312769796201e-03       4.999947127354e+03 
       1.343348132931e-03       5.106187909344e+03 
       1.374638730621e-03       5.214473195405e+03 
       1.406658179962e-03       5.324830910222e+03 
       1.439423458090e-03       5.437288654928e+03 
       1.472951937588e-03       5.551873902914e+03 
       1.507261395700e-03       5.668613633519e+03 
       1.542370023755e-03       5.787534589650e+03 
       1.578296436813e-03       5.908662915319e+03 
       1.615059683532e-03       6.032024351159e+03 
       1.652679256274e-03       6.157644079994e+03 
       1.691175101433e-03       6.285546610144e+03 
       1.730567630016e-03       6.415756043241e+03 
       1.770877728463e-03       6.548295251481e+03 
       1.812126769722e-03       6.683186675502e+03 
       1.854336624581e-03       6.820451778352e+03 
       1.897529673263e-03       6.960111018982e+03 
       1.941728817295e-03       7.102183789091e+03 
       1.986957491648e-03       7.246688457141e+03 
       2.033239677163e-03       7.393642233874e+03 
       2.080599913268e-03       7.543060797651e+03 
       2.129063310987e-03       7.694958773058e+03 
       2.178655566255e-03       7.849349103138e+03 
       2.229402973542e-03       8.006243238514e+03 
       2.281332439796e-03       8.165651180633e+03 
       2.334471498706e-03       8.327580672343e+03 
       2.388848325305e-03       8.492038062488e+03 
       2.444491750906e-03       8.659027358886e+03 
       2.501431278390e-03       8.828550846490e+03 
       2.559697097848e-03       9.000607832501e+03 
       2.619320102590e-03       9.175196232747e+03 
       2.680331905520e-03       9.352310838298e+03 
       2.742764855905e-03       9.531943436066e+03 
       2.806652056522e-03       9.714084135140e+03 
       2.872027381209e-03       9.898718910431e+03 
       2.938925492830e-03       1.008583112462e+04 
       3.007381861648e-03       1.027540180699e+04 
       3.077432784137e-03       1.046740693294e+04 
       3.149115402222e-03       1.066181942679e+04 
       3.222467722977e-03       1.085860832014e+04 
       3.297528638774e-03       1.105815775061e+04 
       3.374337947902e-03       1.126006741811e+04 
       3.452936375675e-03       1.146422532256e+04 
       3.533365596020e-03       1.167058104893e+04 
       3.615668253573e-03       1.187908118276e+04 
       3.699887986293e-03       1.208966524284e+04 
       3.786069448597e-03       1.230227327278e+04 
       3.874258335038e-03       1.251683563578e+04 
       3.964501404530e-03       1.273327730362e+04 
       4.056846505143e-03       1.295151982417e+04 
       4.151342599471e-03       1.317147673146e+04 
       4.248039790595e-03       1.339305819510e+04 
       4.346989348646e-03       1.361616578379e+04 
       4.448243737988e-03       1.384069599725e+04 
       4.551856645040e-03       1.406653500886e+04 
       4.657883006736e-03       1.429356580837e+04 
       4.766379039657e-03       1.452165702866e+04 
       4.877402269835e-03       1.475066870736e+04 
       4.991011563256e-03       1.498048157634e+04 
       5.107267157072e-03       1.521093021143e+04 
       5.226230691538e-03       1.544185657678e+04 
       5.347965242693e-03       1.567309208769e+04 
       5.472535355809e-03       1.590445178014e+04 
       5.600007079608e-03       1.613575392950e+04 
       5.730448001285e-03       1.636679145770e+04 
       5.863927282345e-03       1.659736454665e+04 
       6.000515695267e-03       1.682724794648e+04 
       6.140285661038e-03       1.705621592820e+04 
       6.283311287542e-03       1.728402660896e+04 
       6.429668408860e-03       1.751042468493e+04 
       6.579434625475e-03       1.773515463683e+04 
       6.732689345418e-03       1.795793565517e+04 
       6.889513826370e-03       1.817848068533e+04 
       7.049991218746e-03       1.839649154320e+04 
       7.214206609783e-03       1.861165923583e+04 
       7.382247068657e-03       1.882364906823e+04 
       7.554201692642e-03       1.903213446526e+04 
       7.730161654356e-03       1.923676062167e+04 
       7.910220250099e-03       1.943716220030e+04 
       8.094472949324e-03       1.963296749325e+04 
       8.283017445249e-03       1.982378991610e+04 
       8.475953706663e-03       2.000922070656e+04 
       8.673384030924e-03       2.018885140441e+04 
       8.875413098205e-03       2.036225251011e+04 
       9.082148026990e-03       2.052899391497e+04 
       9.293698430875e-03       2.068861781589e+04 
       9.510176476685e-03       2.084066198156e+04 
       9.731696943945e-03       2.098465036529e+04 
       9.958377285739e-03       2.112010768502e+04 
       1.019033769098e-02       2.124653774221e+04 
       1.042770114816e-02       2.136344175214e+04 
       1.067059351051e-02       2.147030507881e+04 
       1.091914356278e-02       2.156662227462e+04 
       1.117348308950e-02       2.165186226976e+04 
       1.143374694485e-02       2.172552198630e+04 
       1.170007312418e-02       2.178705390803e+04 
       1.197260283715e-02       2.183593829902e+04 
       1.225148058261e-02       2.187164671485e+04 
       1.253685422525e-02       2.189367283312e+04 
       1.282887507394e-02       2.190150128353e+04 
       1.312769796201e-02       2.189463588587e+04 
       1.343348132931e-02       2.187256959772e+04 
       1.374638730621e-02       2.183482219842e+04 
       1.406658179963e-02       2.178095766318e+04 
       1.439423458090e-02       2.171051834946e+04 
       1.472951937588e-02       2.162311055067e+04 
       1.507261395701e-02       2.151834639253e+04 
       1.542370023757e-02       2.139588673895e+04 
       1.578296436816e-02       2.125541792356e+04 
       1.615059683540e-02       2.109668551031e+04 
       1.652679256291e-02       2.091946155122e+04 
       1.691175101473e-02       2.072359585390e+04 
       1.730567630105e-02       2.050897125517e+04 
       1.770877728658e-02       2.027553384666e+04 
       1.812126770139e-02       2.002333643914e+04 
       1.854336625452e-02       1.975243179530e+04 
       1.897529675051e-02       1.946303409832e+04 
       1.941728820895e-02       1.915536143286e+04 
       1.986957498761e-02       1.882975876045e+04 
       2.033239690964e-02       1.848661474575e+04 
       2.080599939568e-02       1.812648887084e+04 
       2.129063360234e-02       1.774998433725e+04 
       2.178655656896e-02       1.735774069751e+04 
       2.229403137583e-02       1.695061963541e+04 
       2.281332731816e-02       1.652947303311e+04 
       2.334472010229e-02       1.609528119006e+04 
       2.388849207280e-02       1.564919335778e+04 
       2.444493248300e-02       1.519228287466e+04 
       2.501433782492e-02       1.472584897555e+04 
       2.559701224046e-02       1.425125157221e+04 
       2.619326804126e-02       1.376989410573e+04 
       2.680342637200e-02       1.328315705466e+04 
       2.742781805957e-02       1.279283787983e+04 
       2.806678469884e-02       1.230007279626e+04 
       2.872068003413e-02       1.180683111878e+04 
       2.938987170307e-02       1.131461776865e+04 
       3.007474341616e-02       1.082504383283e+04 
       3.077569764945e-02       1.033977777388e+04 
       3.149315892934e-02       9.860355178055e+03 
       3.222757778564e-02       9.388359809483e+03 
       3.297943544185e-02       8.925307838742e+03 
       3.374924929904e-02       8.472545644735e+03 
       3.453757925161e-02       8.031471255547e+03 
       3.534503484913e-02       7.603294654157e+03 
       3.617228328984e-02       7.189117766390e+03 
       3.702005819765e-02       6.789986000261e+03 
       3.788916909758e-02       6.406704402506e+03 
       3.878051146603e-02       6.040037902096e+03 
       3.969507719273e-02       5.690566840797e+03 
       4.063396525271e-02       5.358732722318e+03 
       4.159839235130e-02       5.044860500292e+03 
       4.258970327255e-02       4.749096046353e+03 
       4.360938063480e-02       4.471511971999e+03 
       4.465905373583e-02       4.211998497621e+03 
       4.574050615621e-02       3.970346773987e+03 
       4.685568178370e-02       3.746188909459e+03 
       4.800668892605e-02       3.539141944988e+03 
       4.919580219575e-02       3.348557941275e+03 
       5.042546188111e-02       3.173779622039e+03 
       5.169827056558e-02       3.014010116999e+03 
       5.301698682497e-02       2.868315487910e+03 
       5.438451591994e-02       2.735610072366e+03 
       5.580389751156e-02       2.614702727424e+03 
       5.727829055567e-02       2.504231102953e+03 
       5.881095567462e-02       2.402673634648e+03 
       6.040523545230e-02       2.308344794763e+03 
       6.206453324017e-02       2.219405648902e+03 
       6.379229118426e-02       2.133908469223e+03 
       6.559196827274e-02       2.049796799108e+03 
       6.746701924842e-02       1.965053464751e+03 
       6.942087522303e-02       1.877745976866e+03 
