# Matter power spectrum P(k) at redshift z=0
# for k=1.04206e-05 to 504.931 h/Mpc,
# number of wavenumbers equal to 739
#    1:k (h/Mpc)              2:P (Mpc/h)^3        
       1.042057241043e-05       4.830999151633e+01 
       1.066329872315e-05       4.939664551173e+01 
       1.091167885799e-05       5.050773188397e+01 
       1.116584450940e-05       5.164381073967e+01 
       1.142593043937e-05       5.280545100231e+01 
       1.169207454889e-05       5.399321897074e+01 
       1.196441795110e-05       5.520769286209e+01 
       1.224310504608e-05       5.644948851812e+01 
       1.252828359741e-05       5.771922011340e+01 
       1.282010481054e-05       5.901750759943e+01 
       1.311872341293e-05       6.034500149825e+01 
       1.342429773612e-05       6.170234964386e+01 
       1.373698979966e-05       6.309023766426e+01 
       1.405696539703e-05       6.450928838585e+01 
       1.438439418351e-05       6.596035224372e+01 
       1.471944976619e-05       6.744400867310e+01 
       1.506230979597e-05       6.896101898730e+01 
       1.541315606178e-05       7.051218279717e+01 
       1.577217458695e-05       7.209820085379e+01 
       1.613955572785e-05       7.371992190624e+01 
       1.651549427484e-05       7.537810846716e+01 
       1.690018955549e-05       7.707357831324e+01 
       1.729384554035e-05       7.880719639850e+01 
       1.769667095103e-05       8.057982198981e+01 
       1.810887937089e-05       8.239230305235e+01 
       1.853068935829e-05       8.424554632284e+01 
       1.896232456246e-05       8.614047455277e+01 
       1.940401384212e-05       8.807803195213e+01 
       1.985599138676e-05       9.005916327958e+01 
       2.031849684086e-05       9.208485104395e+01 
       2.079177543093e-05       9.415611260773e+01 
       2.127607809555e-05       9.627394717594e+01 
       2.177166161839e-05       9.843942211200e+01 
       2.227878876441e-05       1.006536013927e+02 
       2.279772841912e-05       1.029175747890e+02 
       2.332875573121e-05       1.052324651167e+02 
       2.387215225838e-05       1.075994346572e+02 
       2.442820611665e-05       1.100196304530e+02 
       2.499721213316e-05       1.124942592655e+02 
       2.557947200242e-05       1.150245461745e+02 
       2.617529444632e-05       1.176117477341e+02 
       2.678499537780e-05       1.202571380964e+02 
       2.740889806838e-05       1.229620276967e+02 
       2.804733331951e-05       1.257277391521e+02 
       2.870063963802e-05       1.285556592078e+02 
       2.936916341556e-05       1.314471808365e+02 
       3.005325911229e-05       1.344037372683e+02 
       3.075328944480e-05       1.374267833570e+02 
       3.146962557845e-05       1.405178162712e+02 
       3.220264732413e-05       1.436783648631e+02 
       3.295274333967e-05       1.469099962532e+02 
       3.372031133591e-05       1.502142997519e+02 
       3.450575828756e-05       1.535929161072e+02 
       3.530950064899e-05       1.570475170972e+02 
       3.613196457505e-05       1.605798038022e+02 
       3.697358614698e-05       1.641915298519e+02 
       3.783481160369e-05       1.678844779807e+02 
       3.871609757832e-05       1.716604730036e+02 
       3.961791134036e-05       1.755213836580e+02 
       4.054073104339e-05       1.794691167323e+02 
       4.148504597864e-05       1.835056247064e+02 
       4.245135683438e-05       1.876329012002e+02 
       4.344017596143e-05       1.918529867849e+02 
       4.445202764478e-05       1.961679677408e+02 
       4.548744838157e-05       2.005799756103e+02 
       4.654698716560e-05       2.050911926486e+02 
       4.763120577834e-05       2.097038456315e+02 
       4.874067908685e-05       2.144202159793e+02 
       4.987599534858e-05       2.192426338227e+02 
       5.103775652323e-05       2.241734740890e+02 
       5.222657859195e-05       2.292151840613e+02 
       5.344309188395e-05       2.343702477195e+02 
       5.468794141066e-05       2.396412160465e+02 
       5.596178720779e-05       2.450306846674e+02 
       5.726530468524e-05       2.505413213055e+02 
       5.859918498522e-05       2.561758443879e+02 
       5.996413534874e-05       2.619370365313e+02 
       6.136087949054e-05       2.678277436669e+02 
       6.279015798286e-05       2.738508716104e+02 
       6.425272864806e-05       2.800093967340e+02 
       6.574936696048e-05       2.863063506541e+02 
       6.728086645755e-05       2.927448481436e+02 
       6.884803916059e-05       2.993280632361e+02 
       7.045171600530e-05       3.060592429598e+02 
       7.209274728238e-05       3.129417099485e+02 
       7.377200308833e-05       3.199788559823e+02 
       7.549037378680e-05       3.271741550808e+02 
       7.724877048069e-05       3.345311506471e+02 
       7.904812549519e-05       3.420534713584e+02 
       8.088939287216e-05       3.497448242353e+02 
       8.277354887592e-05       3.576090002739e+02 
       8.470159251094e-05       3.656498736977e+02 
       8.667454605147e-05       3.738714047107e+02 
       8.869345558358e-05       3.822776424840e+02 
       9.075939155984e-05       3.908727258416e+02 
       9.287344936685e-05       3.996608863277e+02 
       9.503674990604e-05       4.086464487338e+02 
       9.725044018799e-05       4.178338340353e+02 
       9.951569394059e-05       4.272275612971e+02 
       1.018337122314e-04       4.368322496242e+02 
       1.042057241043e-04       4.466526217229e+02 
       1.066329872315e-04       4.566935026837e+02 
       1.091167885799e-04       4.669598261285e+02 
       1.116584450940e-04       4.774566348633e+02 
       1.142593043937e-04       4.881890808438e+02 
       1.169207454889e-04       4.991624329963e+02 
       1.196441795110e-04       5.103820737383e+02 
       1.224310504608e-04       5.218535058393e+02 
       1.252828359741e-04       5.335823524686e+02 
       1.282010481054e-04       5.455743609622e+02 
       1.311872341293e-04       5.578354041596e+02 
       1.342429773612e-04       5.703714844131e+02 
       1.373698979966e-04       5.831887358451e+02 
       1.405696539703e-04       5.962934262395e+02 
       1.438439418351e-04       6.096919604088e+02 
       1.471944976619e-04       6.233908845331e+02 
       1.506230979597e-04       6.373968859777e+02 
       1.541315606178e-04       6.517167984115e+02 
       1.577217458695e-04       6.663576037094e+02 
       1.613955572785e-04       6.813264363575e+02 
       1.651549427484e-04       6.966305849686e+02 
       1.690018955549e-04       7.122774959317e+02 
       1.729384554035e-04       7.282747760814e+02 
       1.769667095103e-04       7.446301975121e+02 
       1.810887937089e-04       7.613516981573e+02 
       1.853068935829e-04       7.784473885155e+02 
       1.896232456246e-04       7.959255511638e+02 
       1.940401384212e-04       8.137946464145e+02 
       1.985599138676e-04       8.320633160359e+02 
       2.031849684086e-04       8.507403847232e+02 
       2.079177543093e-04       8.698348659702e+02 
       2.127607809555e-04       8.893559637784e+02 
       2.177166161839e-04       9.093130751763e+02 
       2.227878876441e-04       9.297157983612e+02 
       2.279772841912e-04       9.505739303470e+02 
       2.332875573121e-04       9.718974762325e+02 
       2.387215225838e-04       9.936966483586e+02 
       2.442820611665e-04       1.015981871865e+03 
       2.499721213316e-04       1.038763788826e+03 
       2.557947200242e-04       1.062053261766e+03 
       2.617529444632e-04       1.085861377069e+03 
       2.678499537780e-04       1.110199447892e+03 
       2.740889806838e-04       1.135079019309e+03 
       2.804733331951e-04       1.160511872707e+03 
       2.870063963802e-04       1.186510027419e+03 
       2.936916341556e-04       1.213085745894e+03 
       3.005325911229e-04       1.240251536511e+03 
       3.075328944480e-04       1.268020160503e+03 
       3.146962557845e-04       1.296404630686e+03 
       3.220264732413e-04       1.325418218348e+03 
       3.295274333967e-04       1.355074457693e+03 
       3.372031133591e-04       1.385387147752e+03 
       3.450575828756e-04       1.416370357204e+03 
       3.530950064899e-04       1.448038426693e+03 
       3.613196457505e-04       1.480405976302e+03 
       3.697358614698e-04       1.513487899170e+03 
       3.783481160369e-04       1.547299382297e+03 
       3.871609757832e-04       1.581855893349e+03 
       3.961791134036e-04       1.617173192059e+03 
       4.054073104339e-04       1.653267333116e+03 
       4.148504597864e-04       1.690154668846e+03 
       4.245135683438e-04       1.727851852617e+03 
       4.344017596143e-04       1.766375841606e+03 
       4.445202764478e-04       1.805743895660e+03 
       4.548744838157e-04       1.845973605279e+03 
       4.654698716560e-04       1.887082841261e+03 
       4.763120577834e-04       1.929089822817e+03 
       4.874067908685e-04       1.972013063920e+03 
       4.987599534858e-04       2.015871415660e+03 
       5.103775652323e-04       2.060684049070e+03 
       5.222657859195e-04       2.106470459661e+03 
       5.344309188395e-04       2.153250480364e+03 
       5.468794141066e-04       2.201044252917e+03 
       5.596178720779e-04       2.249872284799e+03 
       5.726530468524e-04       2.299755396477e+03 
       5.859918498522e-04       2.350714749863e+03 
       5.996413534874e-04       2.402771845611e+03 
       6.136087949054e-04       2.455948522121e+03 
       6.279015798286e-04       2.510266959130e+03 
       6.425272864806e-04       2.565749671886e+03 
       6.574936696048e-04       2.622419528246e+03 
       6.728086645755e-04       2.680299715873e+03 
       6.884803916059e-04       2.739413782871e+03 
       7.045171600530e-04       2.799785596149e+03 
       7.209274728238e-04       2.861439369191e+03 
       7.377200308833e-04       2.924399635467e+03 
       7.549037378680e-04       2.988691329677e+03 
       7.724877048069e-04       3.054339594819e+03 
       7.904812549519e-04       3.121369980924e+03 
       8.088939287216e-04       3.189808342235e+03 
       8.277354887592e-04       3.259680828786e+03 
       8.470159251094e-04       3.331013903819e+03 
       8.667454605147e-04       3.403834343916e+03 
       8.869345558358e-04       3.478169210508e+03 
       9.075939155984e-04       3.554045840193e+03 
       9.287344936685e-04       3.631491723300e+03 
       9.503674990604e-04       3.710534994055e+03 
       9.725044018799e-04       3.791203491279e+03 
       9.951569394059e-04       3.873525647446e+03 
       1.018337122314e-03       3.957530043453e+03 
       1.042057241043e-03       4.043245391571e+03 
       1.066329872315e-03       4.130700582900e+03 
       1.091167885799e-03       4.219924863491e+03 
       1.116584450940e-03       4.310947330515e+03 
       1.142593043937e-03       4.403797392813e+03 
       1.169207454889e-03       4.498504514384e+03 
       1.196441795110e-03       4.595098242099e+03 
       1.224310504608e-03       4.693608216558e+03 
       1.252828359741e-03       4.794064009867e+03 
       1.282010481054e-03       4.896495270153e+03 
       1.311872341293e-03       5.000931637414e+03 
       1.342429773612e-03       5.107402729787e+03 
       1.373698979966e-03       5.215937863760e+03 
       1.405696539703e-03       5.326566657130e+03 
       1.438439418351e-03       5.439318137035e+03 
       1.471944976619e-03       5.554221414386e+03 
       1.506230979597e-03       5.671305285842e+03 
       1.541315606178e-03       5.790598310579e+03 
       1.577217458695e-03       5.912128705020e+03 
       1.613955572785e-03       6.035924622414e+03 
       1.651549427484e-03       6.162013320975e+03 
       1.690018955549e-03       6.290421829544e+03 
       1.729384554035e-03       6.421176751587e+03 
       1.769667095103e-03       6.554304079748e+03 
       1.810887937089e-03       6.689829170590e+03 
       1.853068935829e-03       6.827776560102e+03 
       1.896232456246e-03       6.968170619007e+03 
       1.940401384212e-03       7.111034145188e+03 
       1.985599138676e-03       7.256389535315e+03 
       2.031849684086e-03       7.404258070591e+03 
       2.079177543093e-03       7.554660160753e+03 
       2.127607809555e-03       7.707615139828e+03 
       2.177166161839e-03       7.863141091259e+03 
       2.227878876441e-03       8.021255252596e+03 
       2.279772841912e-03       8.181973158884e+03 
       2.332875573121e-03       8.345309385536e+03 
       2.387215225838e-03       8.511276361208e+03 
       2.442820611665e-03       8.679885423304e+03 
       2.499721213316e-03       8.851146182556e+03 
       2.557947200242e-03       9.025067144222e+03 
       2.617529444632e-03       9.201654235642e+03 
       2.678499537780e-03       9.380911336706e+03 
       2.740889806838e-03       9.562840116176e+03 
       2.804733331951e-03       9.747441538944e+03 
       2.870063963802e-03       9.934713240806e+03 
       2.936916341556e-03       1.012465006538e+04 
       3.005325911229e-03       1.031724517461e+04 
       3.075328944480e-03       1.051248882318e+04 
       3.146962557845e-03       1.071036832247e+04 
       3.220264732412e-03       1.091086869019e+04 
       3.295274333967e-03       1.111439179735e+04 
       3.372031133591e-03       1.132055322729e+04 
       3.450575828756e-03       1.152925956646e+04 
       3.530950064899e-03       1.174047976145e+04 
       3.613196457505e-03       1.195418213876e+04 
       3.697358614698e-03       1.217032867335e+04 
       3.783481160369e-03       1.238888043142e+04 
       3.871609757832e-03       1.260979408844e+04 
       3.961791134036e-03       1.283302218732e+04 
       4.054073104339e-03       1.305851348163e+04 
       4.148504597864e-03       1.328621623488e+04 
       4.245135683438e-03       1.351606479310e+04 
       4.344017596143e-03       1.374800228839e+04 
       4.445202764478e-03       1.398195034466e+04 
       4.548744838157e-03       1.421784629856e+04 
       4.654698716560e-03       1.445560381422e+04 
       4.763120577834e-03       1.469513502003e+04 
       4.874067908685e-03       1.493634676075e+04 
       4.987599534858e-03       1.517916587632e+04 
       5.103775652323e-03       1.542347897872e+04 
       5.222657859195e-03       1.566917890357e+04 
       5.344309188395e-03       1.591615038072e+04 
       5.468794141066e-03       1.616427331479e+04 
       5.596178720779e-03       1.641341691763e+04 
       5.726530468524e-03       1.666345337872e+04 
       5.859918498522e-03       1.691423933183e+04 
       5.996413534874e-03       1.716562971808e+04 
       6.136087949054e-03       1.741746500849e+04 
       6.279015798286e-03       1.766958759498e+04 
       6.425272864806e-03       1.792182713440e+04 
       6.574936696048e-03       1.817400714969e+04 
       6.728086645755e-03       1.842594278910e+04 
       6.884803916059e-03       1.867744016569e+04 
       7.045171600530e-03       1.892829747496e+04 
       7.209274728238e-03       1.917831097878e+04 
       7.377200308833e-03       1.942725728923e+04 
       7.549037378680e-03       1.967491013940e+04 
       7.724877048069e-03       1.992103105213e+04 
       7.904812549519e-03       2.016537969356e+04 
       8.088939287216e-03       2.040770567430e+04 
       8.277354887592e-03       2.064773845884e+04 
       8.470159251094e-03       2.088521578623e+04 
       8.667454605147e-03       2.111985381369e+04 
       8.869345558358e-03       2.135136147983e+04 
       9.075939155984e-03       2.157943989744e+04 
       9.287344936685e-03       2.180378229776e+04 
       9.503674990604e-03       2.202407694481e+04 
       9.725044018799e-03       2.223998036420e+04 
       9.951569394059e-03       2.245117598861e+04 
       1.018337122314e-02       2.265730307719e+04 
       1.042057241043e-02       2.285801715489e+04 
       1.066329872315e-02       2.305295061711e+04 
       1.091167885799e-02       2.324174497329e+04 
       1.116584450940e-02       2.342401065242e+04 
       1.142593043937e-02       2.359935970116e+04 
       1.169207454889e-02       2.376740832897e+04 
       1.196441795110e-02       2.392774648921e+04 
       1.224310504608e-02       2.407997139040e+04 
       1.252828359741e-02       2.422366950761e+04 
       1.282010481054e-02       2.435843969827e+04 
       1.311872341293e-02       2.448385360746e+04 
       1.342429773612e-02       2.459948684142e+04 
       1.373698979966e-02       2.470491748386e+04 
       1.405696539703e-02       2.479971229949e+04 
       1.438439418351e-02       2.488345808301e+04 
       1.471944976620e-02       2.495572800323e+04 
       1.506230979599e-02       2.501611009661e+04 
       1.541315606183e-02       2.506419458225e+04 
       1.577217458706e-02       2.509957730984e+04 
       1.613955572810e-02       2.512187290818e+04 
       1.651549427540e-02       2.513070251769e+04 
       1.690018955674e-02       2.512569607744e+04 
       1.729384554304e-02       2.510649529980e+04 
       1.769667095672e-02       2.507281126985e+04 
       1.810887938269e-02       2.502432470254e+04 
       1.853068938228e-02       2.496075099185e+04 
       1.896232461036e-02       2.488185297659e+04 
       1.940401393595e-02       2.478743219574e+04 
       1.985599156728e-02       2.467730362081e+04 
       2.031849718204e-02       2.455133276183e+04 
       2.079177606465e-02       2.440945494567e+04 
       2.127607925274e-02       2.425164652147e+04 
       2.177166369652e-02       2.407788273580e+04 
       2.227879243593e-02       2.388826250677e+04 
       2.279773480293e-02       2.368289478083e+04 
       2.332876665875e-02       2.346207871310e+04 
       2.387217067979e-02       2.322593947025e+04 
       2.442823671007e-02       2.297489405098e+04 
       2.499726220373e-02       2.270934377417e+04 
       2.557955278731e-02       2.242979660542e+04 
       2.617542297873e-02       2.213682579914e+04 
       2.678519710775e-02       2.183104571516e+04 
       2.740921049058e-02       2.151314647368e+04 
       2.804781091945e-02       2.118401110733e+04 
       2.870136053454e-02       2.084448779631e+04 
       2.937023815150e-02       2.049547405178e+04 
       3.005484212031e-02       2.013804561415e+04 
       3.075559379103e-02       1.977325349582e+04 
       3.147294165754e-02       1.940226306023e+04 
       3.220736624066e-02       1.902632624136e+04 
       3.295938575785e-02       1.864657502423e+04 
       3.372956260618e-02       1.826433704315e+04 
       3.451851065998e-02       1.788088773180e+04 
       3.532690335456e-02       1.749744104422e+04 
       3.615548249315e-02       1.711539955739e+04 
       3.700506767769e-02       1.673611845713e+04 
       3.787656622616e-02       1.636077601127e+04 
       3.877098340131e-02       1.599062070384e+04 
       3.968943273962e-02       1.562688386763e+04 
       4.063314623633e-02       1.527068912225e+04 
       4.160348411335e-02       1.492311384871e+04 
       4.260194387351e-02       1.458514535012e+04 
       4.363016832710e-02       1.425769661432e+04 
       4.468995226686e-02       1.394151895166e+04 
       4.578324746650e-02       1.363727976262e+04 
       4.691216568700e-02       1.334550173601e+04 
       4.807897939695e-02       1.306649795924e+04 
       4.928611995029e-02       1.280034717573e+04 
       5.053617301936e-02       1.254686169715e+04 
       5.183187115568e-02       1.230561034753e+04 
       5.317608344594e-02       1.207569347775e+04 
       5.457180234554e-02       1.185596780874e+04 
       5.602212790334e-02       1.164464985241e+04 
       5.753024973247e-02       1.143949124790e+04 
       5.909942722327e-02       1.123776452908e+04 
       6.073296862453e-02       1.103609532243e+04 
       6.243420972387e-02       1.083066321239e+04 
       6.420649292602e-02       1.061719387438e+04 
       6.605314754792e-02       1.039113260982e+04 
       6.797747211753e-02       1.014793551979e+04 
       6.998271937851e-02       9.883413599022e+03 
