# Matter power spectrum P(k) at redshift z=0
# for k=1.04206e-05 to 504.931 h/Mpc,
# number of wavenumbers equal to 739
#    1:k (h/Mpc)              2:P (Mpc/h)^3        
       1.042057241043e-05       4.836822095743e+01 
       1.066329872315e-05       4.945618462343e+01 
       1.091167885799e-05       5.056861007418e+01 
       1.116584450940e-05       5.170605818261e+01 
       1.142593043937e-05       5.286909845888e+01 
       1.169207454889e-05       5.405829794786e+01 
       1.196441795110e-05       5.527423550136e+01 
       1.224310504608e-05       5.651752772670e+01 
       1.252828359741e-05       5.778878958787e+01 
       1.282010481054e-05       5.908864174700e+01 
       1.311872341293e-05       6.041773550202e+01 
       1.342429773612e-05       6.177671943741e+01 
       1.373698979966e-05       6.316628005930e+01 
       1.405696539703e-05       6.458704095263e+01 
       1.438439418351e-05       6.603985346781e+01 
       1.471944976619e-05       6.752529785786e+01 
       1.506230979597e-05       6.904413631086e+01 
       1.541315606178e-05       7.059716941174e+01 
       1.577217458695e-05       7.218509874352e+01 
       1.613955572785e-05       7.380877400858e+01 
       1.651549427484e-05       7.546895874244e+01 
       1.690018955549e-05       7.716647166365e+01 
       1.729384554035e-05       7.890217878828e+01 
       1.769667095103e-05       8.067694036112e+01 
       1.810887937089e-05       8.249160541918e+01 
       1.853068935829e-05       8.434708174278e+01 
       1.896232456246e-05       8.624429318675e+01 
       1.940401384212e-05       8.818418515726e+01 
       1.985599138676e-05       9.016770355768e+01 
       2.031849684086e-05       9.219583198317e+01 
       2.079177543093e-05       9.426958909843e+01 
       2.127607809555e-05       9.638997523662e+01 
       2.177166161839e-05       9.855805913328e+01 
       2.227878876441e-05       1.007749059503e+02 
       2.279772841912e-05       1.030416068360e+02 
       2.332875573121e-05       1.053592858839e+02 
       2.387215225838e-05       1.077291068420e+02 
       2.442820611665e-05       1.101522180956e+02 
       2.499721213316e-05       1.126298278354e+02 
       2.557947200242e-05       1.151631626261e+02 
       2.617529444632e-05       1.177534805490e+02 
       2.678499537780e-05       1.204020572394e+02 
       2.740889806838e-05       1.231102047215e+02 
       2.804733331951e-05       1.258792471696e+02 
       2.870063963802e-05       1.287105730364e+02 
       2.936916341556e-05       1.316055769428e+02 
       3.005325911229e-05       1.345656938165e+02 
       3.075328944480e-05       1.375923802469e+02 
       3.146962557845e-05       1.406871352792e+02 
       3.220264732413e-05       1.438514894438e+02 
       3.295274333967e-05       1.470870117961e+02 
       3.372031133591e-05       1.503952935833e+02 
       3.450575828756e-05       1.537779773937e+02 
       3.530950064899e-05       1.572367371691e+02 
       3.613196457505e-05       1.607732758982e+02 
       3.697358614698e-05       1.643893493086e+02 
       3.783481160369e-05       1.680867422736e+02 
       3.871609757832e-05       1.718672817448e+02 
       3.961791134036e-05       1.757328387061e+02 
       4.054073104339e-05       1.796853222396e+02 
       4.148504597864e-05       1.837266871733e+02 
       4.245135683438e-05       1.878589293671e+02 
       4.344017596143e-05       1.920840918801e+02 
       4.445202764478e-05       1.964042634574e+02 
       4.548744838157e-05       2.008215781461e+02 
       4.654698716560e-05       2.053382208193e+02 
       4.763120577834e-05       2.099564208161e+02 
       4.874067908685e-05       2.146784622446e+02 
       4.987599534858e-05       2.195066780517e+02 
       5.103775652323e-05       2.244434459702e+02 
       5.222657859195e-05       2.294912160117e+02 
       5.344309188395e-05       2.346524753427e+02 
       5.468794141066e-05       2.399297776423e+02 
       5.596178720779e-05       2.453257217451e+02 
       5.726530468524e-05       2.508429784427e+02 
       5.859918498522e-05       2.564842693818e+02 
       5.996413534874e-05       2.622523802398e+02 
       6.136087949054e-05       2.681501605474e+02 
       6.279015798286e-05       2.741805193003e+02 
       6.425272864806e-05       2.803464363877e+02 
       6.574936696048e-05       2.866509468645e+02 
       6.728086645755e-05       2.930971692391e+02 
       6.884803916059e-05       2.996882809945e+02 
       7.045171600530e-05       3.064275332055e+02 
       7.209274728238e-05       3.133182521531e+02 
       7.377200308833e-05       3.203638333345e+02 
       7.549037378680e-05       3.275677549630e+02 
       7.724877048069e-05       3.349335644005e+02 
       7.904812549519e-05       3.424648944953e+02 
       8.088939287216e-05       3.501654564592e+02 
       8.277354887592e-05       3.580390455173e+02 
       8.470159251094e-05       3.660895403365e+02 
       8.667454605147e-05       3.743209055637e+02 
       8.869345558358e-05       3.827371947982e+02 
       9.075939155984e-05       3.913425515717e+02 
       9.287344936685e-05       4.001412121360e+02 
       9.503674990604e-05       4.091375060569e+02 
       9.725044018799e-05       4.183358591838e+02 
       9.951569394059e-05       4.277407955453e+02 
       1.018337122314e-04       4.373569392457e+02 
       1.042057241043e-04       4.471890182761e+02 
       1.066329872315e-04       4.572418627960e+02 
       1.091167885799e-04       4.675204118589e+02 
       1.116584450940e-04       4.780297136079e+02 
       1.142593043937e-04       4.887749254520e+02 
       1.169207454889e-04       4.997613220000e+02 
       1.196441795110e-04       5.109942912799e+02 
       1.224310504608e-04       5.224793418073e+02 
       1.252828359741e-04       5.342221026407e+02 
       1.282010481054e-04       5.462283270022e+02 
       1.311872341293e-04       5.585038937660e+02 
       1.342429773612e-04       5.710548114030e+02 
       1.373698979966e-04       5.838872201140e+02 
       1.405696539703e-04       5.970073940611e+02 
       1.438439418351e-04       6.104217443900e+02 
       1.471944976619e-04       6.241368236056e+02 
       1.506230979597e-04       6.381593256853e+02 
       1.541315606178e-04       6.524960906966e+02 
       1.577217458695e-04       6.671541073131e+02 
       1.613955572785e-04       6.821405166309e+02 
       1.651549427484e-04       6.974626140501e+02 
       1.690018955549e-04       7.131278527724e+02 
       1.729384554035e-04       7.291438464825e+02 
       1.769667095103e-04       7.455183742212e+02 
       1.810887937089e-04       7.622593809672e+02 
       1.853068935829e-04       7.793749840877e+02 
       1.896232456246e-04       7.968734733209e+02 
       1.940401384212e-04       8.147633158855e+02 
       1.985599138676e-04       8.330531608231e+02 
       2.031849684086e-04       8.517518398172e+02 
       2.079177543093e-04       8.708683735534e+02 
       2.127607809555e-04       8.904119730710e+02 
       2.177166161839e-04       9.103920425085e+02 
       2.227878876441e-04       9.308181872351e+02 
       2.279772841912e-04       9.517002112819e+02 
       2.332875573121e-04       9.730481267018e+02 
       2.387215225838e-04       9.948721528632e+02 
       2.442820611665e-04       1.017182721812e+03 
       2.499721213316e-04       1.039990482467e+03 
       2.557947200242e-04       1.063306304181e+03 
       2.617529444632e-04       1.087141279952e+03 
       2.678499537780e-04       1.111506729627e+03 
       2.740889806838e-04       1.136414204590e+03 
       2.804733331951e-04       1.161875492770e+03 
       2.870063963802e-04       1.187902619577e+03 
       2.936916341556e-04       1.214507853855e+03 
       3.005325911229e-04       1.241703709355e+03 
       3.075328944480e-04       1.269502953409e+03 
       3.146962557845e-04       1.297918604663e+03 
       3.220264732413e-04       1.326963939226e+03 
       3.295274333967e-04       1.356652496974e+03 
       3.372031133591e-04       1.386998081830e+03 
       3.450575828756e-04       1.418014767484e+03 
       3.530950064899e-04       1.449716898916e+03 
       3.613196457505e-04       1.482119100685e+03 
       3.697358614698e-04       1.515236270206e+03 
       3.783481160369e-04       1.549083598254e+03 
       3.871609757832e-04       1.583676557225e+03 
       3.961791134036e-04       1.619030908994e+03 
       4.054073104339e-04       1.655162713042e+03 
       4.148504597864e-04       1.692088324998e+03 
       4.245135683438e-04       1.729824400202e+03 
       4.344017596143e-04       1.768387900781e+03 
       4.445202764478e-04       1.807796087999e+03 
       4.548744838157e-04       1.848066556510e+03 
       4.654698716560e-04       1.889217180306e+03 
       4.763120577834e-04       1.931266180436e+03 
       4.874067908685e-04       1.974232075751e+03 
       4.987599534858e-04       2.018133720976e+03 
       5.103775652323e-04       2.062990291001e+03 
       5.222657859195e-04       2.108821284530e+03 
       5.344309188395e-04       2.155646540756e+03 
       5.468794141066e-04       2.203486206309e+03 
       5.596178720779e-04       2.252360794639e+03 
       5.726530468524e-04       2.302291134843e+03 
       5.859918498522e-04       2.353298393990e+03 
       5.996413534874e-04       2.405404087147e+03 
       6.136087949054e-04       2.458630057206e+03 
       6.279015798286e-04       2.512998502189e+03 
       6.425272864806e-04       2.568531949082e+03 
       6.574936696048e-04       2.625253281305e+03 
       6.728086645755e-04       2.683185703587e+03 
       6.884803916059e-04       2.742352781575e+03 
       7.045171600530e-04       2.802778412580e+03 
       7.209274728238e-04       2.864486832275e+03 
       7.377200308833e-04       2.927502595003e+03 
       7.549037378680e-04       2.991850679369e+03 
       7.724877048069e-04       3.057556247882e+03 
       7.904812549519e-04       3.124644899812e+03 
       8.088939287216e-04       3.193142526625e+03 
       8.277354887592e-04       3.263075325961e+03 
       8.470159251094e-04       3.334469798362e+03 
       8.667454605147e-04       3.407352787050e+03 
       8.869345558358e-04       3.481751390272e+03 
       9.075939155984e-04       3.557693025300e+03 
       9.287344936685e-04       3.635205221486e+03 
       9.503674990604e-04       3.714316196562e+03 
       9.725044018799e-04       3.795053850877e+03 
       9.951569394059e-04       3.877446686821e+03 
       1.018337122314e-03       3.961523360802e+03 
       1.042057241043e-03       4.047312660797e+03 
       1.066329872315e-03       4.134843553432e+03 
       1.091167885799e-03       4.224145370254e+03 
       1.116584450940e-03       4.315247263884e+03 
       1.142593043937e-03       4.408178741359e+03 
       1.169207454889e-03       4.502969336602e+03 
       1.196441795110e-03       4.599648670630e+03 
       1.224310504608e-03       4.698246451501e+03 
       1.252828359741e-03       4.798792318511e+03 
       1.282010481054e-03       4.901315979657e+03 
       1.311872341293e-03       5.005847129264e+03 
       1.342429773612e-03       5.112415428545e+03 
       1.373698979966e-03       5.221050225434e+03 
       1.405696539703e-03       5.331781173783e+03 
       1.438439418351e-03       5.444637306163e+03 
       1.471944976619e-03       5.559647732759e+03 
       1.506230979597e-03       5.676841236039e+03 
       1.541315606178e-03       5.796246342502e+03 
       1.577217458695e-03       5.917891225988e+03 
       1.613955572785e-03       6.041803970346e+03 
       1.651549427484e-03       6.168011749621e+03 
       1.690018955549e-03       6.296541486121e+03 
       1.729384554035e-03       6.427419669014e+03 
       1.769667095103e-03       6.560672149799e+03 
       1.810887937089e-03       6.696324110934e+03 
       1.853068935829e-03       6.834399947601e+03 
       1.896232456246e-03       6.974923842031e+03 
       1.940401384212e-03       7.117918374269e+03 
       1.985599138676e-03       7.263405772806e+03 
       2.031849684086e-03       7.411407078943e+03 
       2.079177543093e-03       7.561942523302e+03 
       2.127607809555e-03       7.715031249325e+03 
       2.177166161839e-03       7.870691138790e+03 
       2.227878876441e-03       8.028939274467e+03 
       2.279772841912e-03       8.189791026713e+03 
       2.332875573121e-03       8.353260868006e+03 
       2.387215225838e-03       8.519361111870e+03 
       2.442820611665e-03       8.688103020037e+03 
       2.499721213316e-03       8.859496147196e+03 
       2.557947200242e-03       9.033549013964e+03 
       2.617529444632e-03       9.210267544633e+03 
       2.678499537780e-03       9.389655649148e+03 
       2.740889806838e-03       9.571715049388e+03 
       2.804733331951e-03       9.756446782438e+03 
       2.870063963802e-03       9.943848486077e+03 
       2.936916341556e-03       1.013391507022e+04 
       3.005325911229e-03       1.032663965606e+04 
       3.075328944480e-03       1.052201248401e+04 
       3.146962557845e-03       1.072002068207e+04 
       3.220264732412e-03       1.092064909013e+04 
       3.295274333967e-03       1.112387261799e+04 
       3.372031133591e-03       1.132965759716e+04 
       3.450575828756e-03       1.153797857682e+04 
       3.530950064899e-03       1.174880547687e+04 
       3.613196457505e-03       1.196210738113e+04 
       3.697358614698e-03       1.217784663379e+04 
       3.783481160369e-03       1.239598446531e+04 
       3.871609757832e-03       1.261647761403e+04 
       3.961791134036e-03       1.283927852197e+04 
       4.054073104339e-03       1.306433584424e+04 
       4.148504597864e-03       1.329159765926e+04 
       4.245135683438e-03       1.352099808556e+04 
       4.344017596143e-03       1.375248030534e+04 
       4.445202764478e-03       1.398596573815e+04 
       4.548744838157e-03       1.422139172430e+04 
       4.654698716560e-03       1.445867191130e+04 
       4.763120577834e-03       1.469771819932e+04 
       4.874067908685e-03       1.493843720489e+04 
       4.987599534858e-03       1.518075536138e+04 
       5.103775652323e-03       1.542455854773e+04 
       5.222657859195e-03       1.566973873031e+04 
       5.344309188395e-03       1.591617928758e+04 
       5.468794141066e-03       1.616375885615e+04 
       5.596178720779e-03       1.641234489671e+04 
       5.726530468524e-03       1.666180811820e+04 
       5.859918498522e-03       1.691200357836e+04 
       5.996413534874e-03       1.716278468168e+04 
       6.136087949054e-03       1.741399069233e+04 
       6.279015798286e-03       1.766546302019e+04 
       6.425272864806e-03       1.791703039498e+04 
       6.574936696048e-03       1.816851557168e+04 
       6.728086645755e-03       1.841973278110e+04 
       6.884803916059e-03       1.867048682895e+04 
       7.045171600530e-03       1.892057449616e+04 
       7.209274728238e-03       1.916978968081e+04 
       7.377200308833e-03       1.941790687748e+04 
       7.549037378680e-03       1.966469709464e+04 
       7.724877048069e-03       1.990991903816e+04 
       7.904812549519e-03       2.015333029153e+04 
       8.088939287216e-03       2.039467860200e+04 
       8.277354887592e-03       2.063369176638e+04 
       8.470159251094e-03       2.087010617295e+04 
       8.667454605147e-03       2.110363652896e+04 
       8.869345558358e-03       2.133398984594e+04 
       9.075939155984e-03       2.156086464546e+04 
       9.287344936685e-03       2.178395113298e+04 
       9.503674990604e-03       2.200293467403e+04 
       9.725044018799e-03       2.221746746113e+04 
       9.951569394059e-03       2.242723129426e+04 
       1.018337122314e-02       2.263186213917e+04 
       1.042057241043e-02       2.283101420468e+04 
       1.066329872315e-02       2.302431718514e+04 
       1.091167885799e-02       2.321141031947e+04 
       1.116584450940e-02       2.339190037906e+04 
       1.142593043937e-02       2.356539603424e+04 
       1.169207454889e-02       2.373151096380e+04 
       1.196441795110e-02       2.388983224944e+04 
       1.224310504608e-02       2.403995559571e+04 
       1.252828359741e-02       2.418146589737e+04 
       1.282010481054e-02       2.431396053527e+04 
       1.311872341293e-02       2.443700718484e+04 
       1.342429773612e-02       2.455017856658e+04 
       1.373698979966e-02       2.465305160744e+04 
       1.405696539703e-02       2.474519103827e+04 
       1.438439418351e-02       2.482618305624e+04 
       1.471944976620e-02       2.489559990677e+04 
       1.506230979599e-02       2.495302896433e+04 
       1.541315606183e-02       2.499806002692e+04 
       1.577217458706e-02       2.503028934990e+04 
       1.613955572810e-02       2.504933179351e+04 
       1.651549427540e-02       2.505481097569e+04 
       1.690018955674e-02       2.504635758845e+04 
       1.729384554304e-02       2.502361616755e+04 
       1.769667095672e-02       2.498630127771e+04 
       1.810887938269e-02       2.493409861758e+04 
       1.853068938228e-02       2.486672682873e+04 
       1.896232461036e-02       2.478395536070e+04 
       1.940401393595e-02       2.468559287391e+04 
       1.985599156728e-02       2.457146108156e+04 
       2.031849718204e-02       2.444143422682e+04 
       2.079177606465e-02       2.429546012119e+04 
       2.127607925274e-02       2.413352379419e+04 
       2.177166369652e-02       2.395561319575e+04 
       2.227879243593e-02       2.376184061126e+04 
       2.279773480293e-02       2.355232828348e+04 
       2.332876665875e-02       2.332739682618e+04 
       2.387217067979e-02       2.308718034081e+04 
       2.442823671007e-02       2.283211903190e+04 
       2.499726220373e-02       2.256263151824e+04 
       2.557955278731e-02       2.227924843791e+04 
       2.617542297873e-02       2.198256253150e+04 
       2.678519710775e-02       2.167321118217e+04 
       2.740921049058e-02       2.135190453027e+04 
       2.804781091945e-02       2.101955168678e+04 
       2.870136053454e-02       2.067702487823e+04 
       2.937023815150e-02       2.032524270776e+04 
       3.005484212031e-02       1.996530692244e+04 
       3.075559379103e-02       1.959829086267e+04 
       3.147294165754e-02       1.922538318385e+04 
       3.220736624066e-02       1.884786143314e+04 
       3.295938575785e-02       1.846687366715e+04 
       3.372956260618e-02       1.808377112964e+04 
       3.451851065998e-02       1.769984722104e+04 
       3.532690335456e-02       1.731633072608e+04 
       3.615548249315e-02       1.693464304375e+04 
       3.700506767769e-02       1.655615197518e+04 
       3.787656622616e-02       1.618204639691e+04 
       3.877098340131e-02       1.581358353515e+04 
       3.968943273962e-02       1.545200329673e+04 
       4.063314623633e-02       1.509843232744e+04 
       4.160348411335e-02       1.475394870110e+04 
       4.260194387351e-02       1.441953892588e+04 
       4.363016832710e-02       1.409611071718e+04 
       4.468995226686e-02       1.378440789928e+04 
       4.578324746650e-02       1.348508401608e+04 
       4.691216568700e-02       1.319864469010e+04 
       4.807897939695e-02       1.292538046446e+04 
       4.928611995029e-02       1.266534094029e+04 
       5.053617301936e-02       1.241829840892e+04 
       5.183187115568e-02       1.218377814662e+04 
       5.317608344594e-02       1.196081569366e+04 
       5.457180234554e-02       1.174820342457e+04 
       5.602212790334e-02       1.154406810845e+04 
       5.753024973247e-02       1.134606302579e+04 
       5.909942722327e-02       1.115134322970e+04 
       6.073296862453e-02       1.095640183385e+04 
       6.243420972387e-02       1.075727261931e+04 
       6.420649292602e-02       1.054952885895e+04 
       6.605314754792e-02       1.032846371787e+04 
       6.797747211753e-02       1.008938941357e+04 
       6.998271937851e-02       9.827999553352e+03 
